        t     x(t)     y(t)     z(t)
   0.0000   1.0000   1.0000   1.0000
   0.0100   1.0000   1.2600   0.9833
   0.0200   1.0260   1.5176   0.9697
   0.0300   1.0752   1.7797   0.9594
   0.0400   1.1456   2.0527   0.9530
   0.0500   1.2363   2.3420   0.9511
   0.0600   1.3469   2.6530   0.9547
   0.0700   1.4775   2.9907   0.9649
   0.0800   1.6288   3.3602   0.9834
   0.0900   1.8020   3.7667   1.0119
   0.1000   1.9984   4.2153   1.0528
   0.1100   2.2201   4.7117   1.1090
   0.1200   2.4693   5.2616   1.1840
   0.1300   2.7485   5.8712   1.2823
   0.1400   3.0608   6.5468   1.4095
   0.1500   3.4094   7.2952   1.5723
   0.1600   3.7980   8.1233   1.7791
   0.1700   4.2305   9.0379   2.0402
   0.1800   4.7112  10.0457   2.3681
   0.1900   5.2447  11.1528   2.7782
   0.2000   5.8355  12.3641   3.2891
   0.2100   6.4884  13.6825   3.9229
   0.2200   7.2078  15.1079   4.7060
   0.2300   7.9978  16.6358   5.6695
   0.2400   8.8616  18.2553   6.8488
   0.2500   9.8010  19.9471   8.2839
   0.2600  10.8156  21.6800  10.0180
   0.2700  11.9020  23.4081  12.0956
   0.2800  13.0526  25.0669  14.5591
   0.2900  14.2541  26.5706  17.4428
   0.3000  15.4857  27.8098  20.7650
   0.3100  16.7181  28.6521  24.5178
   0.3200  17.9115  28.9477  28.6541
   0.3300  19.0151  28.5411  33.0750
   0.3400  19.9677  27.2906  37.6201
   0.3500  20.7000  25.0968  42.0662
   0.3600  21.1397  21.9341  46.1395
   0.3700  21.2191  17.8802  49.5459
   0.3800  20.8852  13.1295  52.0187
   0.3900  20.1097   7.9819  53.3737
   0.4000  18.8969   2.7995  53.5555
   0.4100  17.2871  -2.0577  52.6564
   0.4200  15.3527  -6.2995  50.8965
   0.4300  13.1874  -9.7517  48.5721
   0.4400  10.8935 -12.3671  45.9908
   0.4500   8.5675 -14.2033  43.4172
   0.4600   6.2904 -15.3821  41.0425
   0.4700   4.1231 -16.0487  38.9805
   0.4800   2.1059 -16.3410  37.2793
   0.4900   0.2613 -16.3730  35.9410
   0.5000  -1.4022 -16.2300  34.9398
   0.5100  -2.8850 -15.9704  34.2357
   0.5200  -4.1935 -15.6308  33.7835
   0.5300  -5.3372 -15.2320  33.5380
   0.5400  -6.3267 -14.7841  33.4567
   0.5500  -7.1724 -14.2910  33.4998
   0.5600  -7.8843 -13.7536  33.6315
   0.5700  -8.4712 -13.1721  33.8190
   0.5800  -8.9413 -12.5474  34.0330
   0.5900  -9.3019 -11.8825  34.2474
   0.6000  -9.5600 -11.1826  34.4394
   0.6100  -9.7222 -10.4551  34.5901
   0.6200  -9.7955  -9.7099  34.6842
   0.6300  -9.7870  -8.9580  34.7104
   0.6400  -9.7041  -8.2117  34.6615
   0.6500  -9.5548  -7.4831  34.5341
   0.6600  -9.3477  -6.7840  34.3282
   0.6700  -9.0913  -6.1246  34.0469
   0.6800  -8.7946  -5.5136  33.6958
   0.6900  -8.4665  -4.9576  33.2821
   0.7000  -8.1156  -4.4608  32.8143
   0.7100  -7.7501  -4.0255  32.3013
   0.7200  -7.3777  -3.6518  31.7519
   0.7300  -7.0051  -3.3385  31.1746
   0.7400  -6.6384  -3.0827  30.5772
   0.7500  -6.2829  -2.8808  29.9664
   0.7600  -5.9427  -2.7285  29.3483
   0.7700  -5.6212  -2.6211  28.7278
   0.7800  -5.3212  -2.5539  28.1091
   0.7900  -5.0445  -2.5226  27.4954
   0.8000  -4.7923  -2.5228  26.8895
   0.8100  -4.5654  -2.5508  26.2933
   0.8200  -4.3639  -2.6032  25.7086
   0.8300  -4.1878  -2.6772  25.1367
   0.8400  -4.0368  -2.7703  24.5785
   0.8500  -3.9101  -2.8807  24.0349
   0.8600  -3.8072  -3.0070  23.5066
   0.8700  -3.7272  -3.1480  22.9942
   0.8800  -3.6693  -3.3031  22.4984
   0.8900  -3.6326  -3.4719  22.0196
   0.9000  -3.6166  -3.6544  21.5585
   0.9100  -3.6204  -3.8509  21.1158
   0.9200  -3.6434  -4.0616  20.6921
   0.9300  -3.6852  -4.2872  20.2883
   0.9400  -3.7454  -4.5285  19.9053
   0.9500  -3.8237  -4.7864  19.5441
   0.9600  -3.9200  -5.0619  19.2060
   0.9700  -4.0342  -5.3560  18.8922
   0.9800  -4.1664  -5.6699  18.6045
   0.9900  -4.3167  -6.0046  18.3446
   1.0000  -4.4855  -6.3614  18.1146
   1.0100  -4.6731  -6.7412  17.9169
   1.0200  -4.8799  -7.1450  17.7541
   1.0300  -5.1064  -7.5735  17.6294
   1.0400  -5.3531  -8.0273  17.5460
   1.0500  -5.6205  -8.5067  17.5078
   1.0600  -5.9092  -9.0113  17.5191
   1.0700  -6.2194  -9.5405  17.5844
   1.0800  -6.5515 -10.0929  17.7088
   1.0900  -6.9056 -10.6662  17.8978
   1.1000  -7.2817 -11.2572  18.1571
   1.1100  -7.6792 -11.8613  18.4926
   1.1200  -8.0975 -12.4728  18.9104
   1.1300  -8.5350 -13.0841  19.4161
   1.1400  -8.9899 -13.6859  20.0150
   1.1500  -9.4595 -14.2669  20.7117
   1.1600  -9.9402 -14.8137  21.5089
   1.1700 -10.4276 -15.3108  22.4079
   1.1800 -10.9159 -15.7408  23.4069
   1.1900 -11.3984 -16.0848  24.5009
   1.2000 -11.8670 -16.3227  25.6810
   1.2100 -12.3126 -16.4347  26.9332
   1.2200 -12.7248 -16.4017  28.2385
   1.2300 -13.0925 -16.2074  29.5726
   1.2400 -13.4040 -15.8394  30.9059
   1.2500 -13.6475 -15.2915  32.2049
   1.2600 -13.8119 -14.5647  33.4330
   1.2700 -13.8872 -13.6687  34.5531
   1.2800 -13.8654 -12.6219  35.5299
   1.2900 -13.7410 -11.4517  36.3325
   1.3000 -13.5121 -10.1922  36.9372
   1.3100 -13.1801  -8.8827  37.3294
   1.3200 -12.7504  -7.5642  37.5047
   1.3300 -12.2317  -6.2767  37.4690
   1.3400 -11.6362  -5.0557  37.2376
   1.3500 -10.9782  -3.9302  36.8329
   1.3600 -10.2734  -2.9212  36.2821
   1.3700  -9.5382  -2.0412  35.6147
   1.3800  -8.7885  -1.2945  34.8597
   1.3900  -8.0391  -0.6787  34.0439
   1.4000  -7.3030  -0.1860  33.1906
   1.4100  -6.5913   0.1949  32.3191
   1.4200  -5.9127   0.4777  31.4444
   1.4300  -5.2737   0.6765  30.5776
   1.4400  -4.6786   0.8057  29.7266
   1.4500  -4.1302   0.8784  28.8962
   1.4600  -3.6293   0.9067  28.0893
   1.4700  -3.1757   0.9008  27.3074
   1.4800  -2.7681   0.8698  26.5505
   1.4900  -2.4043   0.8210  25.8185
   1.5000  -2.0818   0.7604  25.1102
   1.5100  -1.7975   0.6926  24.4248
   1.5200  -1.5485   0.6214  23.7610
   1.5300  -1.3315   0.5495  23.1178
   1.5400  -1.1434   0.4790  22.4940
   1.5500  -0.9812   0.4113  21.8887
   1.5600  -0.8419   0.3472  21.3009
   1.5700  -0.7230   0.2873  20.7300
   1.5800  -0.6220   0.2319  20.1751
   1.5900  -0.5366   0.1809  19.6357
   1.6000  -0.4648   0.1342  19.1111
   1.6100  -0.4049   0.0916  18.6008
   1.6200  -0.3553   0.0526  18.1044
   1.6300  -0.3145   0.0169  17.6214
   1.6400  -0.2814  -0.0159  17.1515
   1.6500  -0.2548  -0.0463  16.6942
   1.6600  -0.2340  -0.0746  16.2491
   1.6700  -0.2180  -0.1014  15.8160
   1.6800  -0.2064  -0.1269  15.3944
   1.6900  -0.1984  -0.1517  14.9842
   1.7000  -0.1937  -0.1760  14.5849
   1.7100  -0.1920  -0.2002  14.1963
   1.7200  -0.1928  -0.2247  13.8181
   1.7300  -0.1960  -0.2498  13.4501
   1.7400  -0.2014  -0.2758  13.0919
   1.7500  -0.2088  -0.3031  12.7433
   1.7600  -0.2182  -0.3319  12.4041
   1.7700  -0.2296  -0.3626  12.0741
   1.7800  -0.2429  -0.3955  11.7529
   1.7900  -0.2582  -0.4310  11.4405
   1.8000  -0.2754  -0.4695  11.1365
   1.8100  -0.2948  -0.5112  10.8408
   1.8200  -0.3165  -0.5567  10.5533
   1.8300  -0.3405  -0.6064  10.2736
   1.8400  -0.3671  -0.6607  10.0017
   1.8500  -0.3965  -0.7201   9.7374
   1.8600  -0.4288  -0.7853   9.4806
   1.8700  -0.4645  -0.8569   9.2312
   1.8800  -0.5037  -0.9355   8.9890
   1.8900  -0.5469  -1.0219   8.7540
   1.9000  -0.5944  -1.1169   8.5261
   1.9100  -0.6466  -1.2215   8.3054
   1.9200  -0.7041  -1.3367   8.0918
   1.9300  -0.7674  -1.4635   7.8855
   1.9400  -0.8370  -1.6032   7.6864
   1.9500  -0.9136  -1.7572   7.4949
   1.9600  -0.9980  -1.9270   7.3111
   1.9700  -1.0909  -2.1142   7.1353
   1.9800  -1.1932  -2.3206   6.9681
   1.9900  -1.3059  -2.5484   6.8100
   2.0000  -1.4302  -2.7996   6.6617
   2.0100  -1.5671  -3.0768   6.5241
   2.0200  -1.7181  -3.3826   6.3983
   2.0300  -1.8845  -3.7199   6.2858
   2.0400  -2.0681  -4.0919   6.1883
   2.0500  -2.2705  -4.5021   6.1079
   2.0600  -2.4936  -4.9541   6.0472
   2.0700  -2.7397  -5.4520   6.0095
   2.0800  -3.0109  -5.9999   5.9986
   2.0900  -3.3098  -6.6024   6.0193
   2.1000  -3.6391  -7.2639   6.0773
   2.1100  -4.0015  -7.9890   6.1796
   2.1200  -4.4003  -8.7823   6.3345
   2.1300  -4.8385  -9.6478   6.5520
   2.1400  -5.3194 -10.5891   6.8441
   2.1500  -5.8464 -11.6086   7.2249
   2.1600  -6.4226 -12.7071   7.7109
   2.1700  -7.0510 -13.8831   8.3214
   2.1800  -7.7343 -15.1318   9.0784
   2.1900  -8.4740 -16.4440  10.0066
   2.2000  -9.2710 -17.8043  11.1333
   2.2100 -10.1243 -19.1900  12.4870
   2.2200 -11.0309 -20.5686  14.0969
   2.2300 -11.9847 -21.8966  15.9899
   2.2400 -12.9759 -23.1170  18.1877
   2.2500 -13.9900 -24.1591  20.7023
   2.2600 -15.0069 -24.9384  23.5301
   2.2700 -16.0000 -25.3598  26.6451
   2.2800 -16.9360 -25.3230  29.9922
   2.2900 -17.7747 -24.7324  33.4811
   2.3000 -18.4705 -23.5108  36.9843
   2.3100 -18.9745 -21.6163  40.3407
   2.3200 -19.2387 -19.0585  43.3665
   2.3300 -19.2207 -15.9116  45.8766
   2.3400 -18.8898 -12.3165  47.7116
   2.3500 -18.2324  -8.4699  48.7658
   2.3600 -17.2562  -4.5991  49.0097
   2.3700 -15.9905  -0.9276  48.4964
   2.3800 -14.4842   2.3591  47.3515
   2.3900 -12.7999   5.1385  45.7471
   2.4000 -11.0060   7.3587  43.8694
   2.4100  -9.1696   9.0317  41.8897
   2.4200  -7.3494  10.2150  39.9445
   2.4300  -5.5930  10.9907  38.1285
   2.4400  -3.9346  11.4473  36.4970
   2.4500  -2.3964  11.6671  35.0734
   2.4600  -0.9901  11.7199  33.8585
   2.4700   0.2809  11.6607  32.8396
   2.4800   1.4189  11.5305  31.9966
   2.4900   2.4301  11.3585  31.3070
   2.5000   3.3229  11.1646  30.7481
   2.5100   4.1071  10.9616  30.2992
   2.5200   4.7925  10.7576  29.9414
   2.5300   5.3890  10.5570  29.6585
   2.5400   5.9058  10.3620  29.4366
   2.5500   6.3515  10.1735  29.2635
   2.5600   6.7337   9.9916  29.1293
   2.5700   7.0595   9.8156  29.0254
   2.5800   7.3351   9.6451  28.9443
   2.5900   7.5661   9.4793  28.8799
   2.6000   7.7574   9.3180  28.8270
   2.6100   7.9135   9.1606  28.7811
   2.6200   8.0382   9.0072  28.7385
   2.6300   8.1351   8.8578  28.6962
   2.6400   8.2073   8.7126  28.6515
   2.6500   8.2579   8.5720  28.6026
   2.6600   8.2893   8.4365  28.5477
   2.6700   8.3040   8.3067  28.4858
   2.6800   8.3043   8.1833  28.4159
   2.6900   8.2922   8.0670  28.3377
   2.7000   8.2697   7.9583  28.2510
   2.7100   8.2385   7.8579  28.1557
   2.7200   8.2005   7.7665  28.0523
   2.7300   8.1571   7.6846  27.9411
   2.7400   8.1098   7.6125  27.8229
   2.7500   8.0601   7.5508  27.6983
   2.7600   8.0092   7.4996  27.5683
   2.7700   7.9582   7.4592  27.4338
   2.7800   7.9083   7.4296  27.2958
   2.7900   7.8604   7.4110  27.1555
   2.8000   7.8155   7.4033  27.0139
   2.8100   7.7743   7.4063  26.8721
   2.8200   7.7375   7.4200  26.7313
   2.8300   7.7057   7.4439  26.5926
   2.8400   7.6795   7.4779  26.4571
   2.8500   7.6594   7.5216  26.3258
   2.8600   7.6456   7.5747  26.1999
   2.8700   7.6385   7.6365  26.0804
   2.8800   7.6383   7.7068  25.9682
   2.8900   7.6452   7.7849  25.8644
   2.9000   7.6591   7.8704  25.7699
   2.9100   7.6803   7.9625  25.6855
   2.9200   7.7085   8.0606  25.6120
   2.9300   7.7437   8.1641  25.5504
   2.9400   7.7857   8.2721  25.5013
   2.9500   7.8344   8.3839  25.4653
   2.9600   7.8893   8.4987  25.4430
   2.9700   7.9503   8.6154  25.4350
   2.9800   8.0168   8.7332  25.4417
   2.9900   8.0884   8.8509  25.4634
   3.0000   8.1647   8.9676  25.5003
   3.0100   8.2450   9.0820  25.5524
   3.0200   8.3287   9.1930  25.6199
   3.0300   8.4151   9.2993  25.7023
   3.0400   8.5035   9.3997  25.7995
   3.0500   8.5931   9.4928  25.9108
   3.0600   8.6831   9.5774  26.0356
   3.0700   8.7725   9.6522  26.1729
   3.0800   8.8605   9.7160  26.3217
   3.0900   8.9460   9.7675  26.4807
   3.1000   9.0282   9.8058  26.6483
   3.1100   9.1059   9.8297  26.8230
   3.1200   9.1783   9.8386  27.0028
   3.1300   9.2444   9.8318  27.1857
   3.1400   9.3031   9.8087  27.3697
   3.1500   9.3537   9.7693  27.5523
   3.1600   9.3952   9.7134  27.7314
   3.1700   9.4270   9.6416  27.9045
   3.1800   9.4485   9.5541  28.0693
   3.1900   9.4591   9.4521  28.2235
   3.2000   9.4584   9.3364  28.3649
   3.2100   9.4462   9.2085  28.4916
   3.2200   9.4224   9.0700  28.6017
   3.2300   9.3872   8.9226  28.6936
   3.2400   9.3407   8.7683  28.7660
   3.2500   9.2835   8.6090  28.8179
   3.2600   9.2160   8.4470  28.8486
   3.2700   9.1391   8.2843  28.8578
   3.2800   9.0536   8.1231  28.8454
   3.2900   8.9606   7.9653  28.8116
   3.3000   8.8611   7.8129  28.7571
   3.3100   8.7562   7.6677  28.6825
   3.3200   8.6474   7.5313  28.5891
   3.3300   8.5358   7.4050  28.4779
   3.3400   8.4227   7.2902  28.3506
   3.3500   8.3095   7.1878  28.2086
   3.3600   8.1973   7.0986  28.0537
   3.3700   8.0874   7.0232  27.8875
   3.3800   7.9810   6.9620  27.7118
   3.3900   7.8791   6.9154  27.5284
   3.4000   7.7827   6.8834  27.3392
   3.4100   7.6928   6.8660  27.1459
   3.4200   7.6101   6.8631  26.9502
   3.4300   7.5354   6.8743  26.7538
   3.4400   7.4693   6.8995  26.5584
   3.4500   7.4123   6.9382  26.3655
   3.4600   7.3649   6.9899  26.1767
   3.4700   7.3274   7.0543  25.9935
   3.4800   7.3001   7.1308  25.8172
   3.4900   7.2832   7.2189  25.6493
   3.5000   7.2767   7.3179  25.4911
   3.5100   7.2809   7.4273  25.3438
   3.5200   7.2955   7.5464  25.2087
   3.5300   7.3206   7.6746  25.0871
   3.5400   7.3560   7.8110  24.9799
   3.5500   7.4015   7.9551  24.8883
   3.5600   7.4568   8.1059  24.8134
   3.5700   7.5217   8.2624  24.7562
   3.5800   7.5958   8.4238  24.7175
   3.5900   7.6786   8.5889  24.6982
   3.6000   7.7696   8.7565  24.6991
   3.6100   7.8683   8.9254  24.7208
   3.6200   7.9740   9.0942  24.7639
   3.6300   8.0860   9.2613  24.8287
   3.6400   8.2036   9.4251  24.9155
   3.6500   8.3257   9.5839  25.0242
   3.6600   8.4515   9.7358  25.1549
   3.6700   8.5800   9.8789  25.3069
   3.6800   8.7099  10.0112  25.4796
   3.6900   8.8400  10.1306  25.6721
   3.7000   8.9691  10.2351  25.8831
   3.7100   9.0957  10.3226  26.1109
   3.7200   9.2184  10.3912  26.3535
   3.7300   9.3356  10.4391  26.6086
   3.7400   9.4460  10.4646  26.8736
   3.7500   9.5478  10.4663  27.1455
   3.7600   9.6397  10.4432  27.4209
   3.7700   9.7200  10.3946  27.6964
   3.7800   9.7875  10.3202  27.9682
   3.7900   9.8408  10.2201  28.2324
   3.8000   9.8787  10.0950  28.4853
   3.8100   9.9003   9.9461  28.7230
   3.8200   9.9049   9.7751  28.9417
   3.8300   9.8919   9.5841  29.1382
   3.8400   9.8612   9.3757  29.3092
   3.8500   9.8126   9.1528  29.4522
   3.8600   9.7466   8.9188  29.5649
   3.8700   9.6638   8.6771  29.6458
   3.8800   9.5652   8.4312  29.6938
   3.8900   9.4518   8.1849  29.7084
   3.9000   9.3251   7.9416  29.6898
   3.9100   9.1867   7.7046  29.6386
   3.9200   9.0385   7.4770  29.5561
   3.9300   8.8824   7.2616  29.4437
   3.9400   8.7203   7.0608  29.3035
   3.9500   8.5543   6.8765  29.1378
   3.9600   8.3866   6.7104  28.9491
   3.9700   8.2189   6.5637  28.7399
   3.9800   8.0534   6.4372  28.5129
   3.9900   7.8918   6.3316  28.2710
   4.0000   7.7358   6.2469  28.0168
   4.0100   7.5869   6.1831  27.7529
   4.0200   7.4465   6.1400  27.4819
   4.0300   7.3159   6.1172  27.2063
   4.0400   7.1960   6.1141  26.9283
   4.0500   7.0878   6.1301  26.6502
   4.0600   6.9920   6.1644  26.3740
   4.0700   6.9093   6.2165  26.1017
   4.0800   6.8400   6.2855  25.8352
   4.0900   6.7845   6.3707  25.5762
   4.1000   6.7431   6.4714  25.3264
   4.1100   6.7160   6.5870  25.0874
   4.1200   6.7031   6.7167  24.8608
   4.1300   6.7044   6.8600  24.6480
   4.1400   6.7200   7.0161  24.4507
   4.1500   6.7496   7.1845  24.2701
   4.1600   6.7931   7.3644  24.1079
   4.1700   6.8502   7.5551  23.9653
   4.1800   6.9207   7.7560  23.8437
   4.1900   7.0042   7.9661  23.7447
   4.2000   7.1004   8.1844  23.6694
   4.2100   7.2088   8.4101  23.6194
   4.2200   7.3289   8.6418  23.5958
   4.2300   7.4602   8.8781  23.5999
   4.2400   7.6020   9.1176  23.6329
   4.2500   7.7536   9.3584  23.6958
   4.2600   7.9141   9.5986  23.7896
   4.2700   8.0825   9.8358  23.9148
   4.2800   8.2578  10.0676  24.0721
   4.2900   8.4388  10.2913  24.2615
   4.3000   8.6241  10.5039  24.4830
   4.3100   8.8121  10.7022  24.7360
   4.3200   9.0011  10.8828  25.0194
   4.3300   9.1892  11.0422  25.3318
   4.3400   9.3745  11.1770  25.6710
   4.3500   9.5548  11.2835  26.0342
   4.3600   9.7277  11.3585  26.4181
   4.3700   9.8907  11.3988  26.8185
   4.3800  10.0416  11.4017  27.2308
   4.3900  10.1776  11.3649  27.6496
   4.4000  10.2963  11.2869  28.0689
   4.4100  10.3954  11.1670  28.4825
   4.4200  10.4725  11.0051  28.8839
   4.4300  10.5258  10.8025  29.2661
   4.4400  10.5535  10.5612  29.6228
   4.4500  10.5542  10.2844  29.9474
   4.4600  10.5273   9.9760  30.2342
   4.4700  10.4721   9.6410  30.4782
   4.4800  10.3890   9.2851  30.6751
   4.4900  10.2786   8.9143  30.8217
   4.5000  10.1422   8.5352  30.9160
   4.5100   9.9815   8.1541  30.9573
   4.5200   9.7987   7.7773  30.9456
   4.5300   9.5966   7.4109  30.8825
   4.5400   9.3780   7.0602  30.7702
   4.5500   9.1463   6.7298  30.6117
   4.5600   8.9046   6.4236  30.4109
   4.5700   8.6565   6.1447  30.1720
   4.5800   8.4053   5.8952  29.8993
   4.5900   8.1543   5.6767  29.5975
   4.6000   7.9066   5.4896  29.2711
   4.6100   7.6649   5.3342  28.9246
   4.6200   7.4318   5.2100  28.5622
   4.6300   7.2096   5.1161  28.1877
   4.6400   7.0003   5.0514  27.8049
   4.6500   6.8054   5.0146  27.4170
   4.6600   6.6263   5.0041  27.0272
   4.6700   6.4641   5.0185  26.6380
   4.6800   6.3195   5.0564  26.2521
   4.6900   6.1932   5.1163  25.8716
   4.7000   6.0855   5.1969  25.4985
   4.7100   5.9967   5.2972  25.1348
   4.7200   5.9267   5.4160  24.7822
   4.7300   5.8756   5.5526  24.4423
   4.7400   5.8433   5.7061  24.1168
   4.7500   5.8296   5.8759  23.8071
   4.7600   5.8342   6.0616  23.5148
   4.7700   5.8570   6.2627  23.2414
   4.7800   5.8976   6.4787  22.9884
   4.7900   5.9557   6.7095  22.7575
   4.8000   6.0311   6.9547  22.5502
   4.8100   6.1234   7.2138  22.3683
   4.8200   6.2325   7.4865  22.2136
   4.8300   6.3579   7.7723  22.0878
   4.8400   6.4993   8.0704  21.9929
   4.8500   6.6564   8.3802  21.9310
   4.8600   6.8288   8.7003  21.9040
   4.8700   7.0159   9.0296  21.9140
   4.8800   7.2173   9.3663  21.9631
   4.8900   7.4322   9.7083  22.0534
   4.9000   7.6598  10.0532  22.1869
   4.9100   7.8992  10.3980  22.3653
   4.9200   8.1490  10.7391  22.5903
   4.9300   8.4080  11.0725  22.8630
   4.9400   8.6745  11.3937  23.1843
   4.9500   8.9464  11.6975  23.5544
   4.9600   9.2215  11.9783  23.9728
   4.9700   9.4972  12.2299  24.4381
   4.9800   9.7705  12.4459  24.9479
   4.9900  10.0380  12.6196  25.4986
   5.0000  10.2962  12.7445  26.0854
   5.0100  10.5410  12.8142  26.7020
   5.0200  10.7683  12.8229  27.3407
   5.0300  10.9738  12.7656  27.9924
   5.0400  11.1530  12.6388  28.6468
   5.0500  11.3015  12.4403  29.2925
   5.0600  11.4154  12.1698  29.9173
   5.0700  11.4909  11.8292  30.5087
   5.0800  11.5247  11.4227  31.0545
   5.0900  11.5145  10.9564  31.5428
   5.1000  11.4587  10.4389  31.9632
   5.1100  11.3567   9.8804  32.3070
   5.1200  11.2091   9.2925  32.5676
   5.1300  11.0174   8.6875  32.7407
   5.1400  10.7844   8.0784  32.8248
   5.1500  10.5138   7.4772  32.8206
   5.1600  10.2102   6.8957  32.7316
   5.1700   9.8787   6.3436  32.5628
   5.1800   9.5252   5.8294  32.3211
   5.1900   9.1556   5.3595  32.0145
   5.2000   8.7760   4.9384  31.6515
   5.2100   8.3922   4.5685  31.2408
   5.2200   8.0099   4.2509  30.7911
   5.2300   7.6340   3.9848  30.3105
   5.2400   7.2691   3.7686  29.8064
   5.2500   6.9190   3.5996  29.2855
   5.2600   6.5871   3.4746  28.7537
   5.2700   6.2758   3.3902  28.2158
   5.2800   5.9873   3.3428  27.6761
   5.2900   5.7228   3.3288  27.1382
   5.3000   5.4834   3.3448  26.6050
   5.3100   5.2696   3.3878  26.0790
   5.3200   5.0814   3.4552  25.5621
   5.3300   4.9188   3.5445  25.0560
   5.3400   4.7813   3.6539  24.5622
   5.3500   4.6686   3.7817  24.0819
   5.3600   4.5799   3.9268  23.6163
   5.3700   4.5146   4.0883  23.1663
   5.3800   4.4720   4.2657  22.7331
   5.3900   4.4513   4.4585  22.3177
   5.4000   4.4521   4.6669  21.9210
   5.4100   4.4735   4.8909  21.5442
   5.4200   4.5153   5.1308  21.1885
   5.4300   4.5768   5.3870  20.8551
   5.4400   4.6578   5.6602  20.5455
   5.4500   4.7581   5.9508  20.2613
   5.4600   4.8773   6.2595  20.0041
   5.4700   5.0156   6.5869  19.7760
   5.4800   5.1727   6.9335  19.5790
   5.4900   5.3488   7.2997  19.4156
   5.5000   5.5439   7.6859  19.2882
   5.5100   5.7581   8.0920  19.2000
   5.5200   5.9915   8.5178  19.1539
   5.5300   6.2441   8.9626  19.1535
   5.5400   6.5160   9.4254  19.2024
   5.5500   6.8069   9.9044  19.3045
   5.5600   7.1166  10.3972  19.4639
   5.5700   7.4447  10.9007  19.6848
   5.5800   7.7903  11.4108  19.9714
   5.5900   8.1523  11.9221  20.3277
   5.6000   8.5293  12.4284  20.7576
   5.6100   8.9192  12.9218  21.2641
   5.6200   9.3195  13.3934  21.8496
   5.6300   9.7269  13.8326  22.5151
   5.6400  10.1375  14.2278  23.2602
   5.6500  10.5465  14.5661  24.0823
   5.6600  10.9485  14.8336  24.9763
   5.6700  11.3370  15.0163  25.9343
   5.6800  11.7049  15.1003  26.9451
   5.6900  12.0444  15.0728  27.9941
   5.7000  12.3473  14.9228  29.0630
   5.7100  12.6048  14.6423  30.1305
   5.7200  12.8086  14.2273  31.1727
   5.7300  12.9504  13.6787  32.1637
   5.7400  13.0233  13.0027  33.0775
   5.7500  13.0212  12.2114  33.8888
   5.7600  12.9402  11.3225  34.5751
   5.7700  12.7784  10.3584  35.1183
   5.7800  12.5364   9.3452  35.5054
   5.7900  12.2173   8.3109  35.7302
   5.8000  11.8267   7.2833  35.7928
   5.8100  11.3723   6.2889  35.6997
   5.8200  10.8640   5.3504  35.4629
   5.8300  10.3126   4.4861  35.0984
   5.8400   9.7300   3.7092  34.6251
   5.8500   9.1279   3.0275  34.0627
   5.8600   8.5179   2.4438  33.4307
   5.8700   7.9104   1.9568  32.7474
   5.8800   7.3151   1.5617  32.0289
   5.8900   6.7397   1.2513  31.2890
   5.9000   6.1909   1.0172  30.5390
   5.9100   5.6735   0.8498  29.7876
   5.9200   5.1911   0.7399  29.0415
   5.9300   4.7460   0.6784  28.3054
   5.9400   4.3393   0.6571  27.5828
   5.9500   3.9711   0.6687  26.8758
   5.9600   3.6408   0.7066  26.1857
   5.9700   3.3474   0.7656  25.5131
   5.9800   3.0892   0.8412  24.8584
   5.9900   2.8644   0.9298  24.2215
   6.0000   2.6710   1.0288  23.6022
   6.0100   2.5067   1.1360  23.0003
   6.0200   2.3697   1.2499  22.4154
   6.0300   2.2577   1.3698  21.8473
   6.0400   2.1689   1.4950  21.2956
   6.0500   2.1015   1.6254  20.7602
   6.0600   2.0539   1.7613  20.2407
   6.0700   2.0246   1.9031  19.7372
   6.0800   2.0125   2.0513  19.2494
   6.0900   2.0164   2.2069  18.7773
   6.1000   2.0354   2.3708  18.3211
   6.1100   2.0690   2.5441  17.8808
   6.1200   2.1165   2.7281  17.4566
   6.1300   2.1776   2.9239  17.0488
   6.1400   2.2523   3.1332  16.6579
   6.1500   2.3404   3.3573  16.2842
   6.1600   2.4421   3.5979  15.9286
   6.1700   2.5576   3.8567  15.5917
   6.1800   2.6875   4.1355  15.2745
   6.1900   2.8323   4.4362  14.9783
   6.2000   2.9927   4.7606  14.7046
   6.2100   3.1695   5.1109  14.4549
   6.2200   3.3636   5.4891  14.2315
   6.2300   3.5762   5.8973  14.0366
   6.2400   3.8083   6.3377  13.8732
   6.2500   4.0613   6.8123  13.7446
   6.2600   4.3364   7.3232  13.6547
   6.2700   4.6350   7.8720  13.6082
   6.2800   4.9587   8.4603  13.6101
   6.2900   5.3089   9.0893  13.6667
   6.3000   5.6869   9.7593  13.7848
   6.3100   6.0942  10.4702  13.9722
   6.3200   6.5318  11.2203  14.2377
   6.3300   7.0006  12.0071  14.5909
   6.3400   7.5013  12.8257  15.0424
   6.3500   8.0337  13.6694  15.6034
   6.3600   8.5973  14.5286  16.2854
   6.3700   9.1904  15.3905  17.1002
   6.3800   9.8104  16.2383  18.0586
   6.3900  10.4532  17.0512  19.1702
   6.4000  11.1130  17.8037  20.4413
   6.4100  11.7821  18.4657  21.8748
   6.4200  12.4505  19.0027  23.4671
   6.4300  13.1057  19.3770  25.2072
   6.4400  13.7328  19.5493  27.0746
   6.4500  14.3144  19.4809  29.0372
   6.4600  14.8311  19.1376  31.0515
   6.4700  15.2617  18.4937  33.0617
   6.4800  15.5849  17.5362  35.0026
   6.4900  15.7801  16.2695  36.8021
   6.5000  15.8290  14.7178  38.3881
   6.5100  15.7179  12.9263  39.6941
   6.5200  15.4387  10.9590  40.6673
   6.5300  14.9908   8.8938  41.2748
   6.5400  14.3811   6.8148  41.5074
   6.5500  13.6244   4.8042  41.3806
   6.5600  12.7424   2.9331  40.9316
   6.5700  11.7615   1.2560  40.2139
   6.5800  10.7109  -0.1931  39.2892
   6.5900   9.6205  -1.4004  38.2208
   6.6000   8.5184  -2.3697  37.0668
   6.6100   7.4296  -3.1183  35.8766
   6.6200   6.3748  -3.6723  34.6882
   6.6300   5.3701  -4.0620  33.5291
   6.6400   4.4269  -4.3183  32.4168
   6.6500   3.5524  -4.4706  31.3612
   6.6600   2.7501  -4.5453  30.3661
   6.6700   2.0205  -4.5649  29.4313
   6.6800   1.3620  -4.5482  28.5542
   6.6900   0.7710  -4.5103  27.7308
   6.7000   0.2429  -4.4631  26.9566
   6.7100  -0.2277  -4.4159  26.2269
   6.7200  -0.6466  -4.3758  25.5376
   6.7300  -1.0195  -4.3480  24.8849
   6.7400  -1.3523  -4.3362  24.2656
   6.7500  -1.6507  -4.3434  23.6771
   6.7600  -1.9200  -4.3713  23.1175
   6.7700  -2.1651  -4.4213  22.5849
   6.7800  -2.3907  -4.4944  22.0784
   6.7900  -2.6011  -4.5910  21.5971
   6.8000  -2.8001  -4.7116  21.1406
   6.8100  -2.9912  -4.8566  20.7087
   6.8200  -3.1778  -5.0261  20.3018
   6.8300  -3.3626  -5.2205  19.9201
   6.8400  -3.5484  -5.4400  19.5645
   6.8500  -3.7376  -5.6849  19.2358
   6.8600  -3.9323  -5.9556  18.9353
   6.8700  -4.1346  -6.2525  18.6646
   6.8800  -4.3464  -6.5760  18.4254
   6.8900  -4.5694  -6.9264  18.2198
   6.9000  -4.8051  -7.3040  18.0505
   6.9100  -5.0550  -7.7090  17.9201
   6.9200  -5.3204  -8.1415  17.8319
   6.9300  -5.6025  -8.6010  17.7895
   6.9400  -5.9023  -9.0871  17.7970
   6.9500  -6.2208  -9.5984  17.8588
   6.9600  -6.5586 -10.1333  17.9796
   6.9700  -6.9160 -10.6892  18.1648
   6.9800  -7.2934 -11.2625  18.4197
   6.9900  -7.6903 -11.8486  18.7499
   7.0000  -8.1061 -12.4415  19.1611
   7.0100  -8.5396 -13.0335  19.6586
   7.0200  -8.9890 -13.6155  20.2474
   7.0300  -9.4517 -14.1762  20.9314
   7.0400  -9.9241 -14.7026  21.7131
   7.0500 -10.4020 -15.1795  22.5932
   7.0600 -10.8797 -15.5901  23.5697
   7.0700 -11.3508 -15.9162  24.6373
   7.0800 -11.8073 -16.1387  25.7869
   7.0900 -12.2404 -16.2387  27.0048
   7.1000 -12.6403 -16.1981  28.2724
   7.1100 -12.9960 -16.0017  29.5659
   7.1200 -13.2966 -15.6381  30.8571
   7.1300 -13.5308 -15.1019  32.1136
   7.1400 -13.6879 -14.3942  33.3006
   7.1500 -13.7585 -13.5248  34.3828
   7.1600 -13.7351 -12.5113  35.3268
   7.1700 -13.6128 -11.3798  36.1032
   7.1800 -13.3895 -10.1630  36.6896
   7.1900 -13.0668  -8.8979  37.0720
   7.2000 -12.6499  -7.6235  37.2460
   7.2100 -12.1473  -6.3776  37.2172
   7.2200 -11.5703  -5.1942  36.9994
   7.2300 -10.9327  -4.1010  36.6138
   7.2400 -10.2495  -3.1183  36.0857
   7.2500  -9.5364  -2.2583  35.4431
   7.2600  -8.8086  -1.5260  34.7133
   7.2700  -8.0803  -0.9194  33.9220
   7.2800  -7.3643  -0.4317  33.0917
   7.2900  -6.6710  -0.0524  32.2410
   7.3000  -6.0091   0.2311  31.3848
   7.3100  -5.3851   0.4322  30.5340
   7.3200  -4.8034   0.5643  29.6965
   7.3300  -4.2666   0.6401  28.8774
   7.3400  -3.7759   0.6712  28.0801
   7.3500  -3.3312   0.6675  27.3059
   7.3600  -2.9314   0.6377  26.5555
   7.3700  -2.5744   0.5890  25.8287
   7.3800  -2.2581   0.5272  25.1248
   7.3900  -1.9796   0.4570  24.4429
   7.4000  -1.7359   0.3820  23.7820
   7.4100  -1.5241   0.3050  23.1412
   7.4200  -1.3412   0.2279  22.5195
   7.4300  -1.1843   0.1521  21.9159
   7.4400  -1.0507   0.0785  21.3296
   7.4500  -0.9378   0.0076  20.7600
   7.4600  -0.8432  -0.0603  20.2064
   7.4700  -0.7649  -0.1255  19.6680
   7.4800  -0.7010  -0.1879  19.1445
   7.4900  -0.6497  -0.2481  18.6353
   7.5000  -0.6095  -0.3065  18.1400
   7.5100  -0.5792  -0.3635  17.6581
   7.5200  -0.5577  -0.4198  17.1893
   7.5300  -0.5439  -0.4759  16.7333
   7.5400  -0.5371  -0.5324  16.2897
   7.5500  -0.5366  -0.5900  15.8581
   7.5600  -0.5419  -0.6492  15.4384
   7.5700  -0.5527  -0.7108  15.0302
   7.5800  -0.5685  -0.7754  14.6334
   7.5900  -0.5892  -0.8436  14.2476
   7.6000  -0.6146  -0.9162  13.8726
   7.6100  -0.6448  -0.9939  13.5083
   7.6200  -0.6797  -1.0774  13.1545
   7.6300  -0.7194  -1.1675  12.8110
   7.6400  -0.7643  -1.2651  12.4778
   7.6500  -0.8143  -1.3711  12.1547
   7.6600  -0.8700  -1.4864  11.8417
   7.6700  -0.9316  -1.6121  11.5389
   7.6800  -0.9997  -1.7494  11.2462
   7.6900  -1.0747  -1.8993  10.9638
   7.7000  -1.1571  -2.0634  10.6918
   7.7100  -1.2478  -2.2431  10.4306
   7.7200  -1.3473  -2.4399  10.1804
   7.7300  -1.4566  -2.6556   9.9418
   7.7400  -1.5764  -2.8920   9.7154
   7.7500  -1.7080  -3.1514   9.5019
   7.7600  -1.8523  -3.4358   9.3024
   7.7700  -2.0107  -3.7478   9.1179
   7.7800  -2.1844  -4.0900   8.9502
   7.7900  -2.3750  -4.4652   8.8008
   7.8000  -2.5840  -4.8765   8.6722
   7.8100  -2.8132  -5.3272   8.5669
   7.8200  -3.0646  -5.8206   8.4883
   7.8300  -3.3402  -6.3603   8.4404
   7.8400  -3.6422  -6.9501   8.4277
   7.8500  -3.9730  -7.5934   8.4561
   7.8600  -4.3350  -8.2940   8.5323
   7.8700  -4.7309  -9.0550   8.6643
   7.8800  -5.1633  -9.8792   8.8617
   7.8900  -5.6349 -10.7686   9.1355
   7.9000  -6.1483 -11.7239   9.4986
   7.9100  -6.7059 -12.7442   9.9662
   7.9200  -7.3097 -13.8260  10.5550
   7.9300  -7.9613 -14.9630  11.2842
   7.9400  -8.6615 -16.1442  12.1745
   7.9500  -9.4097 -17.3534  13.2482
   7.9600 -10.2041 -18.5680  14.5278
   7.9700 -11.0405 -19.7570  16.0351
   7.9800 -11.9122 -20.8805  17.7888
   7.9900 -12.8090 -21.8880  19.8017
   8.0000 -13.7169 -22.7193  22.0773
   8.0100 -14.6172 -23.3045  24.6051
   8.0200 -15.4858 -23.5677  27.3552
   8.0300 -16.2940 -23.4318  30.2754
   8.0400 -17.0078 -22.8267  33.2861
   8.0500 -17.5897 -21.6994  36.2809
   8.0600 -18.0007 -20.0259  39.1301
   8.0700 -18.2032 -17.8221  41.6915
   8.0800 -18.1651 -15.1516  43.8239
   8.0900 -17.8637 -12.1256  45.4076
   8.1000 -17.2900  -8.8949  46.3628
   8.1100 -16.4504  -5.6309  46.6644
   8.1200 -15.3685  -2.5042  46.3463
   8.1300 -14.0820   0.3404  45.4952
   8.1400 -12.6399   2.8005  44.2342
   8.1500 -11.0958   4.8246  42.7006
   8.1600  -9.5037   6.4075  41.0265
   8.1700  -7.9126   7.5815  39.3235
   8.1800  -6.3633   8.4016  37.6751
   8.1900  -4.8868   8.9332  36.1358
   8.2000  -3.5047   9.2415  34.7356
   8.2100  -2.2301   9.3851  33.4854
   8.2200  -1.0685   9.4136  32.3831
   8.2300  -0.0204   9.3663  31.4191
   8.2400   0.9183   9.2733  30.5793
   8.2500   1.7538   9.1569  29.8490
   8.2600   2.4941   9.0329  29.2136
   8.2700   3.1480   8.9123  28.6599
   8.2800   3.7244   8.8024  28.1762
   8.2900   4.2322   8.7078  27.7526
   8.3000   4.6798   8.6312  27.3811
   8.3100   5.0749   8.5739  27.0549
   8.3200   5.4248   8.5361  26.7685
   8.3300   5.7360   8.5175  26.5178
   8.3400   6.0141   8.5174  26.2992
   8.3500   6.2644   8.5345  26.1101
   8.3600   6.4914   8.5675  25.9485
   8.3700   6.6991   8.6150  25.8127
   8.3800   6.8907   8.6754  25.7015
   8.3900   7.0691   8.7471  25.6139
   8.4000   7.2369   8.8283  25.5492
   8.4100   7.3961   8.9173  25.5068
   8.4200   7.5482   9.0126  25.4861
   8.4300   7.6946   9.1122  25.4868
   8.4400   7.8364   9.2145  25.5083
   8.4500   7.9742   9.3176  25.5501
   8.4600   8.1085   9.4198  25.6118
   8.4700   8.2397   9.5192  25.6926
   8.4800   8.3676   9.6141  25.7918
   8.4900   8.4923   9.7028  25.9085
   8.5000   8.6133   9.7833  26.0416
   8.5100   8.7303   9.8542  26.1898
   8.5200   8.8427   9.9137  26.3517
   8.5300   8.9498   9.9603  26.5257
   8.5400   9.0508   9.9926  26.7097
   8.5500   9.1450  10.0095  26.9019
   8.5600   9.2315  10.0098  27.0999
   8.5700   9.3093   9.9928  27.3013
   8.5800   9.3777   9.9579  27.5035
   8.5900   9.4357   9.9049  27.7039
   8.6000   9.4826   9.8338  27.8997
   8.6100   9.5177   9.7450  28.0882
   8.6200   9.5405   9.6391  28.2667
   8.6300   9.5503   9.5173  28.4326
   8.6400   9.5470   9.3808  28.5833
   8.6500   9.5304   9.2313  28.7166
   8.6600   9.5005   9.0707  28.8306
   8.6700   9.4575   8.9011  28.9236
   8.6800   9.4019   8.7247  28.9941
   8.6900   9.3342   8.5440  29.0412
   8.7000   9.2551   8.3614  29.0643
   8.7100   9.1658   8.1793  29.0631
   8.7200   9.0671   8.0000  29.0378
   8.7300   8.9604   7.8259  28.9888
   8.7400   8.8470   7.6591  28.9170
   8.7500   8.7282   7.5013  28.8235
   8.7600   8.6055   7.3545  28.7096
   8.7700   8.4804   7.2199  28.5769
   8.7800   8.3543   7.0987  28.4271
   8.7900   8.2288   6.9921  28.2621
   8.8000   8.1051   6.9006  28.0838
   8.8100   7.9846   6.8248  27.8942
   8.8200   7.8687   6.7650  27.6953
   8.8300   7.7583   6.7213  27.4891
   8.8400   7.6546   6.6937  27.2775
   8.8500   7.5585   6.6821  27.0625
   8.8600   7.4709   6.6861  26.8459
   8.8700   7.3924   6.7055  26.6295
   8.8800   7.3237   6.7398  26.4151
   8.8900   7.2653   6.7884  26.2043
   8.9000   7.2176   6.8510  25.9987
   8.9100   7.1810   6.9270  25.7999
   8.9200   7.1556   7.0157  25.6093
   8.9300   7.1416   7.1166  25.4284
   8.9400   7.1391   7.2291  25.2585
   8.9500   7.1481   7.3525  25.1011
   8.9600   7.1685   7.4862  24.9573
   8.9700   7.2003   7.6295  24.8284
   8.9800   7.2432   7.7815  24.7156
   8.9900   7.2970   7.9416  24.6202
   9.0000   7.3615   8.1088  24.5431
   9.0100   7.4362   8.2822  24.4856
   9.0200   7.5208   8.4607  24.4485
   9.0300   7.6148   8.6432  24.4329
   9.0400   7.7177   8.8284  24.4395
   9.0500   7.8287   9.0149  24.4691
   9.0600   7.9473   9.2012  24.5224
   9.0700   8.0727   9.3855  24.5997
   9.0800   8.2040   9.5662  24.7014
   9.0900   8.3402   9.7412  24.8275
   9.1000   8.4803   9.9083  24.9778
   9.1100   8.6231  10.0655  25.1520
   9.1200   8.7674  10.2105  25.3493
   9.1300   8.9117  10.3408  25.5685
   9.1400   9.0546  10.4540  25.8082
   9.1500   9.1945  10.5480  26.0665
   9.1600   9.3299  10.6203  26.3413
   9.1700   9.4589  10.6688  26.6297
   9.1800   9.5799  10.6917  26.9287
   9.1900   9.6911  10.6874  27.2349
   9.2000   9.7907  10.6547  27.5443
   9.2100   9.8771  10.5928  27.8530
   9.2200   9.9487  10.5014  28.1565
   9.2300  10.0040  10.3808  28.4504
   9.2400  10.0416  10.2319  28.7302
   9.2500  10.0607  10.0563  28.9916
   9.2600  10.0602   9.8559  29.2302
   9.2700  10.0398   9.6336  29.4422
   9.2800   9.9992   9.3925  29.6243
   9.2900   9.9385   9.1362  29.7735
   9.3000   9.8583   8.8685  29.8875
   9.3100   9.7593   8.5938  29.9648
   9.3200   9.6428   8.3161  30.0044
   9.3300   9.5101   8.0396  30.0062
   9.3400   9.3630   7.7684  29.9706
   9.3500   9.2036   7.5063  29.8988
   9.3600   9.0339   7.2564  29.7923
   9.3700   8.8561   7.0220  29.6534
   9.3800   8.6727   6.8053  29.4845
   9.3900   8.4860   6.6085  29.2885
   9.4000   8.2982   6.4331  29.0682
   9.4100   8.1117   6.2801  28.8269
   9.4200   7.9285   6.1502  28.5676
   9.4300   7.7507   6.0437  28.2935
   9.4400   7.5800   5.9605  28.0074
   9.4500   7.4181   5.9004  27.7123
   9.4600   7.2663   5.8627  27.4110
   9.4700   7.1259   5.8469  27.1061
   9.4800   6.9980   5.8521  26.7999
   9.4900   6.8834   5.8776  26.4948
   9.5000   6.7829   5.9224  26.1928
   9.5100   6.6968   5.9858  25.8960
   9.5200   6.6257   6.0668  25.6063
   9.5300   6.5698   6.1647  25.3255
   9.5400   6.5293   6.2788  25.0551
   9.5500   6.5043   6.4083  24.7970
   9.5600   6.4947   6.5525  24.5525
   9.5700   6.5005   6.7109  24.3234
   9.5800   6.5215   6.8828  24.1110
   9.5900   6.5576   7.0676  23.9169
   9.6000   6.6086   7.2647  23.7426
   9.6100   6.6742   7.4734  23.5895
   9.6200   6.7542   7.6930  23.4593
   9.6300   6.8480   7.9228  23.3533
   9.6400   6.9555   8.1618  23.2731
   9.6500   7.0761   8.4089  23.2202
   9.6600   7.2094   8.6631  23.1960
   9.6700   7.3548   8.9228  23.2020
   9.6800   7.5116   9.1864  23.2395
   9.6900   7.6791   9.4522  23.3098
   9.7000   7.8564   9.7178  23.4141
   9.7100   8.0425   9.9809  23.5532
   9.7200   8.2364  10.2387  23.7278
   9.7300   8.4366  10.4882  23.9384
   9.7400   8.6418  10.7260  24.1849
   9.7500   8.8502  10.9485  24.4669
   9.7600   9.0600  11.1517  24.7834
   9.7700   9.2692  11.3316  25.1328
   9.7800   9.4754  11.4840  25.5129
   9.7900   9.6763  11.6048  25.9208
   9.8000   9.8691  11.6900  26.3525
   9.8100  10.0512  11.7357  26.8034
   9.8200  10.2197  11.7386  27.2682
   9.8300  10.3716  11.6960  27.7407
   9.8400  10.5040  11.6059  28.2141
   9.8500  10.6142  11.4674  28.6807
   9.8600  10.6995  11.2804  29.1331
   9.8700  10.7576  11.0464  29.5632
   9.8800  10.7865  10.7678  29.9632
   9.8900  10.7846  10.4484  30.3256
   9.9000  10.7510  10.0931  30.6437
   9.9100  10.6852   9.7079  30.9117
   9.9200  10.5875   9.2997  31.1247
   9.9300  10.4587   8.8759  31.2793
   9.9400  10.3004   8.4442  31.3735
   9.9500  10.1148   8.0122  31.4066
   9.9600   9.9045   7.5875  31.3795
   9.9700   9.6728   7.1770  31.2943
   9.9800   9.4233   6.7865  31.1540
   9.9900   9.1596   6.4215  30.9627
  10.0000   8.8858   6.0859  30.7252
